# hypstar_120251_radcal_L_200903_vnir.dat																			
# Calibrated by Joel Kuusk, Tartu Observatory, University of Tartu, 2020-09-03																			
#																			
# Applied corrections:																			
# nonlinearity	hypstar_120251_nonlin_corr_coefs_200903.dat																		
# wavelength	none																		
# thermal	none																		
# stray light	none																		
#																			
# L [mW m-2 nm-1 sr-1] = DN / inttime_ms * 1000 * cal_coef																			
#																			
# px	wl	cal_coef	u_cal_coef(k=2)	u_lamp(k=1)	u_aging(k=1)	u_power(k=1)	u_align_lamp(k=1)	u_panel(k=1)	u_interp_panel(k=1)	u_align_panel(k=1)	u_wl_source(k=1)	u_lab_stray(k=1)	u_panel_backrefl(k=1)	u_dist(k=1)	u_align(k=1)	u_temp(k=1)	u_lin(k=1)	u_stray(k=1)	u_typeA(k=1)
349	320.3	1.63903e-04	77.6	0.859	0.0485	0.0949	0.100	0.326	0.100	0.100	1.23	0.100	0.100	0.0800	0.100	0.300	0.155	38.7	1.24
350	320.8	1.69459e-04	79.6	0.859	0.0485	0.0948	0.100	0.326	0.100	0.100	1.22	0.100	0.100	0.0800	0.100	0.300	0.155	39.7	1.20
351	321.2	1.63838e-04	74.7	0.859	0.0485	0.0946	0.100	0.326	0.100	0.100	1.22	0.100	0.100	0.0800	0.100	0.300	0.155	37.3	1.11
352	321.7	1.65046e-04	73.9	0.859	0.0485	0.0945	0.100	0.326	0.100	0.100	1.21	0.100	0.100	0.0800	0.100	0.300	0.155	36.9	1.25
353	322.1	1.69574e-04	75.5	0.859	0.0485	0.0944	0.100	0.326	0.100	0.100	1.21	0.100	0.100	0.0800	0.100	0.300	0.155	37.7	1.07
354	322.6	1.64106e-04	70.7	0.859	0.0485	0.0942	0.100	0.326	0.100	0.100	1.20	0.100	0.100	0.0800	0.100	0.300	0.155	35.3	1.12
355	323	1.67027e-04	71.3	0.859	0.0485	0.0941	0.100	0.326	0.100	0.100	1.20	0.100	0.100	0.0800	0.100	0.300	0.155	35.6	1.19
356	323.5	1.64172e-04	68.3	0.859	0.0485	0.0940	0.100	0.326	0.100	0.100	1.19	0.100	0.100	0.0800	0.100	0.300	0.155	34.1	1.53
357	324	1.65606e-04	67.7	0.859	0.0485	0.0938	0.100	0.326	0.100	0.100	1.19	0.100	0.100	0.0800	0.100	0.300	0.155	33.8	1.04
358	324.4	1.65919e-04	66.8	0.859	0.0485	0.0937	0.100	0.326	0.100	0.100	1.18	0.100	0.100	0.0800	0.100	0.300	0.155	33.4	1.04
359	324.9	1.63948e-04	64.5	0.859	0.0485	0.0936	0.100	0.326	0.100	0.100	1.18	0.100	0.100	0.0800	0.100	0.300	0.155	32.2	1.01
360	325.3	1.64035e-04	63.6	0.859	0.0485	0.0935	0.100	0.326	0.100	0.100	1.17	0.100	0.100	0.0800	0.100	0.300	0.155	31.7	0.993
361	325.8	1.66179e-04	63.5	0.859	0.0485	0.0933	0.100	0.326	0.100	0.100	1.17	0.100	0.100	0.0800	0.100	0.300	0.155	31.7	0.989
362	326.3	1.69607e-04	64.0	0.859	0.0485	0.0932	0.100	0.326	0.100	0.100	1.16	0.100	0.100	0.0800	0.100	0.300	0.155	31.9	1.06
363	326.7	1.68184e-04	62.3	0.859	0.0485	0.0931	0.100	0.326	0.100	0.100	1.16	0.100	0.100	0.0800	0.100	0.300	0.155	31.1	0.992
364	327.2	1.66851e-04	60.5	0.859	0.0485	0.0929	0.100	0.326	0.100	0.100	1.16	0.100	0.100	0.0800	0.100	0.300	0.155	30.2	0.981
365	327.6	1.6738e-04	59.9	0.859	0.0485	0.0928	0.100	0.326	0.100	0.100	1.15	0.100	0.100	0.0800	0.100	0.300	0.155	29.9	0.997
366	328.1	1.64458e-04	57.5	0.859	0.0485	0.0927	0.100	0.326	0.100	0.100	1.15	0.100	0.100	0.0800	0.100	0.300	0.155	28.7	1.12
367	328.5	1.71114e-04	59.6	0.859	0.0485	0.0925	0.100	0.326	0.100	0.100	1.14	0.100	0.100	0.0800	0.100	0.300	0.155	29.8	0.932
368	329	1.69002e-04	57.6	0.859	0.0485	0.0924	0.100	0.326	0.100	0.100	1.14	0.100	0.100	0.0800	0.100	0.300	0.155	28.7	0.876
369	329.5	1.71242e-04	57.5	0.859	0.0485	0.0923	0.100	0.326	0.100	0.100	1.13	0.100	0.100	0.0800	0.100	0.300	0.155	28.7	0.960
370	329.9	1.7346e-04	57.7	0.859	0.0485	0.0921	0.100	0.326	0.100	0.100	1.13	0.100	0.100	0.0800	0.100	0.300	0.155	28.8	0.933
371	330.4	1.75905e-04	57.7	0.859	0.0485	0.0920	0.100	0.326	0.100	0.100	1.13	0.100	0.100	0.0800	0.100	0.300	0.155	28.8	0.906
372	330.8	1.71913e-04	55.2	0.859	0.0485	0.0919	0.100	0.326	0.100	0.100	1.12	0.100	0.100	0.0800	0.100	0.300	0.155	27.6	0.922
373	331.3	1.76956e-04	56.3	0.859	0.0485	0.0918	0.100	0.326	0.100	0.100	1.12	0.100	0.100	0.0800	0.100	0.300	0.155	28.1	0.943
374	331.8	1.79143e-04	56.2	0.859	0.0485	0.0916	0.100	0.326	0.100	0.100	1.11	0.100	0.100	0.0800	0.100	0.300	0.155	28.0	0.918
375	332.2	1.76917e-04	54.5	0.859	0.0485	0.0915	0.100	0.326	0.100	0.100	1.11	0.100	0.100	0.0800	0.100	0.300	0.155	27.2	0.894
376	332.7	1.7978e-04	54.7	0.859	0.0485	0.0914	0.100	0.326	0.100	0.100	1.11	0.100	0.100	0.0800	0.100	0.300	0.155	27.3	0.867
377	333.1	1.79726e-04	53.9	0.859	0.0485	0.0913	0.100	0.326	0.100	0.100	1.10	0.100	0.100	0.0800	0.100	0.300	0.155	26.9	0.865
378	333.6	1.82254e-04	53.9	0.859	0.0485	0.0911	0.100	0.326	0.100	0.100	1.10	0.100	0.100	0.0800	0.100	0.300	0.155	26.9	0.909
379	334.1	1.81479e-04	52.7	0.859	0.0485	0.0910	0.100	0.326	0.100	0.100	1.09	0.100	0.100	0.0800	0.100	0.300	0.155	26.3	0.911
380	334.5	1.81617e-04	52.1	0.859	0.0485	0.0909	0.100	0.326	0.100	0.100	1.09	0.100	0.100	0.0800	0.100	0.300	0.155	26.0	0.975
381	335	1.82605e-04	51.6	0.859	0.0485	0.0907	0.100	0.326	0.100	0.100	1.09	0.100	0.100	0.0800	0.100	0.300	0.155	25.7	0.892
382	335.4	1.81942e-04	50.6	0.859	0.0485	0.0906	0.100	0.326	0.100	0.100	1.08	0.100	0.100	0.0800	0.100	0.300	0.155	25.3	0.866
383	335.9	1.82941e-04	50.1	0.859	0.0485	0.0905	0.100	0.326	0.100	0.100	1.08	0.100	0.100	0.0800	0.100	0.300	0.155	25.0	0.841
384	336.4	1.81745e-04	48.9	0.859	0.0485	0.0904	0.100	0.326	0.100	0.100	1.07	0.100	0.100	0.0800	0.100	0.300	0.155	24.4	0.833
385	336.8	1.85289e-04	49.4	0.859	0.0485	0.0903	0.100	0.326	0.100	0.100	1.07	0.100	0.100	0.0800	0.100	0.300	0.155	24.7	0.826
386	337.3	1.82482e-04	47.7	0.859	0.0485	0.0901	0.100	0.326	0.100	0.100	1.07	0.100	0.100	0.0800	0.100	0.300	0.155	23.8	0.975
387	337.7	1.83042e-04	47.3	0.859	0.0485	0.0900	0.100	0.326	0.100	0.100	1.06	0.100	0.100	0.0800	0.100	0.300	0.155	23.6	0.815
388	338.2	1.77244e-04	44.7	0.859	0.0485	0.0899	0.100	0.326	0.100	0.100	1.06	0.100	0.100	0.0800	0.100	0.300	0.155	22.3	0.779
389	338.7	1.8113e-04	45.2	0.859	0.0485	0.0898	0.100	0.326	0.100	0.100	1.06	0.100	0.100	0.0800	0.100	0.300	0.155	22.5	0.875
390	339.1	1.77578e-04	43.6	0.859	0.0485	0.0896	0.100	0.326	0.100	0.100	1.05	0.100	0.100	0.0800	0.100	0.300	0.155	21.7	0.760
391	339.6	1.78997e-04	43.3	0.859	0.0485	0.0895	0.100	0.326	0.100	0.100	1.05	0.100	0.100	0.0800	0.100	0.300	0.155	21.6	0.797
392	340	1.76157e-04	42.0	0.859	0.0485	0.0894	0.100	0.326	0.100	0.100	1.05	0.100	0.100	0.0800	0.100	0.300	0.155	20.9	0.814
393	340.5	1.77364e-04	41.6	0.859	0.0485	0.0893	0.100	0.326	0.100	0.100	1.04	0.100	0.100	0.0800	0.100	0.300	0.155	20.8	0.745
394	341	1.75125e-04	40.4	0.859	0.0485	0.0891	0.100	0.326	0.100	0.100	1.04	0.100	0.100	0.0800	0.100	0.300	0.155	20.1	0.739
395	341.4	1.7553e-04	40.0	0.859	0.0485	0.0890	0.100	0.326	0.100	0.100	1.04	0.100	0.100	0.0800	0.100	0.300	0.155	19.9	0.696
396	341.9	1.71202e-04	38.3	0.859	0.0485	0.0889	0.100	0.326	0.100	0.100	1.03	0.100	0.100	0.0800	0.100	0.300	0.155	19.1	0.720
397	342.3	1.7323e-04	38.3	0.859	0.0485	0.0888	0.100	0.326	0.100	0.100	1.03	0.100	0.100	0.0800	0.100	0.300	0.155	19.1	0.695
398	342.8	1.74897e-04	38.2	0.859	0.0485	0.0887	0.100	0.326	0.100	0.100	1.03	0.100	0.100	0.0800	0.100	0.300	0.155	19.0	0.786
399	343.3	1.70643e-04	36.5	0.859	0.0485	0.0886	0.100	0.326	0.100	0.100	1.02	0.100	0.100	0.0800	0.100	0.300	0.155	18.2	0.695
400	343.7	1.69347e-04	35.8	0.859	0.0485	0.0884	0.100	0.326	0.100	0.100	1.02	0.100	0.100	0.0800	0.100	0.300	0.155	17.8	0.702
401	344.2	1.6884e-04	35.1	0.859	0.0485	0.0883	0.100	0.326	0.100	0.100	1.02	0.100	0.100	0.0800	0.100	0.300	0.155	17.5	0.642
402	344.7	1.68608e-04	34.6	0.859	0.0485	0.0882	0.100	0.326	0.100	0.100	1.01	0.100	0.100	0.0800	0.100	0.300	0.155	17.2	0.698
403	345.1	1.66708e-04	33.7	0.859	0.0485	0.0881	0.100	0.326	0.100	0.100	1.01	0.100	0.100	0.0800	0.100	0.300	0.155	16.8	0.661
404	345.6	1.65962e-04	33.1	0.859	0.0485	0.0880	0.100	0.326	0.100	0.100	1.01	0.100	0.100	0.0800	0.100	0.300	0.155	16.5	0.634
405	346	1.64365e-04	32.3	0.859	0.0485	0.0879	0.100	0.326	0.100	0.100	1.00	0.100	0.100	0.0800	0.100	0.300	0.155	16.1	0.607
406	346.5	1.63405e-04	31.7	0.859	0.0485	0.0877	0.100	0.326	0.100	0.100	0.999	0.100	0.100	0.0800	0.100	0.300	0.155	15.8	0.588
407	347	1.62258e-04	31.0	0.859	0.0485	0.0876	0.100	0.326	0.100	0.100	0.996	0.100	0.100	0.0800	0.100	0.300	0.155	15.4	0.610
408	347.4	1.62227e-04	30.6	0.859	0.0485	0.0875	0.100	0.326	0.100	0.100	0.993	0.100	0.100	0.0800	0.100	0.300	0.155	15.2	0.601
409	347.9	1.62016e-04	30.1	0.859	0.0485	0.0874	0.100	0.326	0.100	0.100	0.989	0.100	0.100	0.0800	0.100	0.300	0.155	15.0	0.625
410	348.3	1.59535e-04	29.3	0.859	0.0485	0.0873	0.100	0.326	0.100	0.100	0.987	0.100	0.100	0.0800	0.100	0.300	0.155	14.6	0.577
411	348.8	1.59502e-04	28.9	0.859	0.0485	0.0872	0.100	0.326	0.100	0.100	0.983	0.100	0.100	0.0800	0.100	0.300	0.155	14.4	0.564
412	349.3	1.59018e-04	28.4	0.859	0.0485	0.0870	0.100	0.326	0.100	0.100	0.980	0.100	0.100	0.0800	0.100	0.300	0.155	14.1	0.569
413	349.7	1.58454e-04	28.0	0.859	0.0485	0.0869	0.100	0.326	0.100	0.100	0.977	0.100	0.100	0.0800	0.100	0.300	0.155	13.9	0.553
414	350.2	1.58248e-04	27.6	0.859	0.0485	0.0868	0.100	0.326	0.100	0.100	0.973	0.100	0.100	0.0800	0.100	0.300	0.155	13.7	0.614
415	350.7	1.56812e-04	26.9	0.859	0.0485	0.0867	0.100	0.326	0.100	0.100	0.970	0.100	0.100	0.0800	0.100	0.300	0.155	13.4	0.568
416	351.1	1.56899e-04	26.6	0.859	0.0485	0.0866	0.100	0.326	0.100	0.100	0.967	0.100	0.100	0.0800	0.100	0.300	0.155	13.2	0.547
417	351.6	1.55611e-04	26.0	0.859	0.0485	0.0865	0.100	0.326	0.100	0.100	0.964	0.100	0.100	0.0800	0.100	0.300	0.155	12.9	0.538
418	352	1.55737e-04	25.8	0.859	0.0485	0.0864	0.100	0.326	0.100	0.100	0.961	0.100	0.100	0.0800	0.100	0.300	0.155	12.8	0.534
419	352.5	1.55915e-04	25.5	0.859	0.0485	0.0862	0.100	0.326	0.100	0.100	0.957	0.100	0.100	0.0800	0.100	0.300	0.155	12.7	0.529
420	353	1.56015e-04	25.2	0.859	0.0485	0.0861	0.100	0.326	0.100	0.100	0.954	0.100	0.100	0.0800	0.100	0.300	0.155	12.5	0.540
421	353.4	1.54261e-04	24.6	0.859	0.0485	0.0860	0.100	0.326	0.100	0.100	0.951	0.100	0.100	0.0800	0.100	0.300	0.155	12.2	0.537
422	353.9	1.54852e-04	24.4	0.859	0.0485	0.0859	0.100	0.326	0.100	0.100	0.948	0.100	0.100	0.0800	0.100	0.300	0.155	12.1	0.489
423	354.4	1.55197e-04	24.1	0.859	0.0485	0.0858	0.100	0.326	0.100	0.100	0.944	0.100	0.100	0.0800	0.100	0.300	0.155	12.0	0.501
424	354.8	1.53908e-04	23.7	0.859	0.0485	0.0857	0.100	0.326	0.100	0.100	0.942	0.100	0.100	0.0800	0.100	0.300	0.155	11.7	0.472
425	355.3	1.55764e-04	23.7	0.859	0.0485	0.0856	0.100	0.326	0.100	0.100	0.938	0.100	0.100	0.0800	0.100	0.300	0.155	11.7	0.482
426	355.7	1.55849e-04	23.4	0.859	0.0485	0.0855	0.100	0.326	0.100	0.100	0.935	0.100	0.100	0.0800	0.100	0.300	0.155	11.6	0.464
427	356.2	1.56015e-04	23.2	0.859	0.0485	0.0853	0.100	0.326	0.100	0.100	0.932	0.100	0.100	0.0800	0.100	0.300	0.155	11.5	0.502
428	356.7	1.54018e-04	22.6	0.859	0.0485	0.0852	0.100	0.326	0.100	0.100	0.929	0.100	0.100	0.0800	0.100	0.300	0.155	11.2	0.485
429	357.1	1.53596e-04	22.3	0.859	0.0485	0.0851	0.100	0.326	0.100	0.100	0.926	0.100	0.100	0.0800	0.100	0.300	0.155	11.0	0.453
430	357.6	1.50965e-04	21.6	0.859	0.0485	0.0850	0.100	0.326	0.100	0.100	0.923	0.100	0.100	0.0800	0.100	0.300	0.155	10.7	0.445
431	358.1	1.54102e-04	21.8	0.859	0.0485	0.0849	0.100	0.326	0.100	0.100	0.919	0.100	0.100	0.0800	0.100	0.300	0.155	10.8	0.476
432	358.5	1.50059e-04	21.0	0.859	0.0485	0.0848	0.100	0.326	0.100	0.100	0.917	0.100	0.100	0.0800	0.100	0.300	0.155	10.4	0.439
433	359	1.49748e-04	20.7	0.859	0.0485	0.0847	0.100	0.326	0.100	0.100	0.913	0.100	0.100	0.0800	0.100	0.300	0.155	10.2	0.423
434	359.4	1.50472e-04	20.6	0.859	0.0485	0.0846	0.100	0.326	0.100	0.100	0.911	0.100	0.100	0.0800	0.100	0.300	0.155	10.2	0.449
435	359.9	1.5092e-04	20.4	0.859	0.0485	0.0845	0.100	0.326	0.100	0.100	0.907	0.100	0.100	0.0800	0.100	0.300	0.155	10.1	0.436
436	360.4	1.49471e-04	19.9	0.859	0.0485	0.0844	0.100	0.326	0.100	0.100	0.904	0.100	0.100	0.0800	0.100	0.300	0.155	9.86	0.415
437	360.8	1.50236e-04	19.8	0.859	0.0485	0.0843	0.100	0.326	0.100	0.100	0.902	0.100	0.100	0.0800	0.100	0.300	0.155	9.82	0.416
438	361.3	1.51531e-04	19.8	0.859	0.0485	0.0841	0.100	0.326	0.100	0.100	0.898	0.100	0.100	0.0800	0.100	0.300	0.155	9.79	0.418
439	361.8	1.5254e-04	19.7	0.859	0.0485	0.0840	0.100	0.326	0.100	0.100	0.895	0.100	0.100	0.0800	0.100	0.300	0.155	9.74	0.422
440	362.2	1.54872e-04	19.8	0.859	0.0485	0.0839	0.100	0.326	0.100	0.100	0.892	0.100	0.100	0.0800	0.100	0.300	0.155	9.81	0.423
441	362.7	1.56343e-04	19.8	0.859	0.0485	0.0838	0.100	0.326	0.100	0.100	0.889	0.100	0.100	0.0800	0.100	0.300	0.155	9.80	0.408
442	363.2	1.5642e-04	19.6	0.859	0.0485	0.0837	0.100	0.326	0.100	0.100	0.886	0.100	0.100	0.0800	0.100	0.300	0.155	9.68	0.417
443	363.6	1.55281e-04	19.2	0.859	0.0485	0.0836	0.100	0.326	0.100	0.100	0.883	0.100	0.100	0.0800	0.100	0.300	0.155	9.51	0.402
444	364.1	1.56013e-04	19.1	0.859	0.0485	0.0835	0.100	0.326	0.100	0.100	0.880	0.100	0.100	0.0800	0.100	0.300	0.155	9.45	0.408
445	364.5	1.53806e-04	18.6	0.859	0.0485	0.0834	0.100	0.326	0.100	0.100	0.878	0.100	0.100	0.0800	0.100	0.300	0.155	9.22	0.402
446	365	1.5554e-04	18.7	0.859	0.0485	0.0833	0.100	0.326	0.100	0.100	0.874	0.100	0.100	0.0800	0.100	0.300	0.155	9.22	0.423
447	365.5	1.55162e-04	18.4	0.859	0.0485	0.0832	0.100	0.326	0.100	0.100	0.871	0.100	0.100	0.0800	0.100	0.300	0.155	9.09	0.413
448	365.9	1.54223e-04	18.1	0.859	0.0485	0.0831	0.100	0.326	0.100	0.100	0.869	0.100	0.100	0.0800	0.100	0.300	0.155	8.94	0.388
449	366.4	1.55449e-04	18.0	0.859	0.0485	0.0830	0.100	0.326	0.100	0.100	0.866	0.100	0.100	0.0800	0.100	0.300	0.155	8.92	0.388
450	366.9	1.55164e-04	17.8	0.859	0.0485	0.0829	0.100	0.326	0.100	0.100	0.862	0.100	0.100	0.0800	0.100	0.300	0.155	8.79	0.412
451	367.3	1.55788e-04	17.7	0.859	0.0485	0.0828	0.100	0.326	0.100	0.100	0.860	0.100	0.100	0.0800	0.100	0.300	0.155	8.75	0.395
452	367.8	1.56072e-04	17.6	0.859	0.0485	0.0827	0.100	0.326	0.100	0.100	0.857	0.100	0.100	0.0800	0.100	0.300	0.155	8.67	0.382
453	368.3	1.5658e-04	17.4	0.859	0.0485	0.0825	0.100	0.326	0.100	0.100	0.854	0.100	0.100	0.0800	0.100	0.300	0.155	8.60	0.376
454	368.7	1.57793e-04	17.4	0.859	0.0485	0.0825	0.100	0.326	0.100	0.100	0.851	0.100	0.100	0.0800	0.100	0.300	0.155	8.59	0.378
455	369.2	1.59816e-04	17.4	0.859	0.0485	0.0823	0.100	0.326	0.100	0.100	0.848	0.100	0.100	0.0800	0.100	0.300	0.155	8.61	0.371
456	369.7	1.59722e-04	17.2	0.859	0.0485	0.0822	0.100	0.326	0.100	0.100	0.845	0.100	0.100	0.0800	0.100	0.300	0.155	8.51	0.374
457	370.1	1.60752e-04	17.2	0.859	0.0485	0.0821	0.100	0.326	0.100	0.100	0.843	0.100	0.100	0.0800	0.100	0.300	0.155	8.49	0.394
458	370.6	1.60866e-04	17.0	0.859	0.0485	0.0820	0.100	0.326	0.100	0.100	0.839	0.100	0.100	0.0800	0.100	0.300	0.155	8.40	0.500
459	371.1	1.60901e-04	16.8	0.859	0.0485	0.0819	0.100	0.326	0.100	0.100	0.836	0.100	0.100	0.0800	0.100	0.300	0.155	8.31	0.347
460	371.5	1.62057e-04	16.8	0.859	0.0485	0.0818	0.100	0.326	0.100	0.100	0.834	0.100	0.100	0.0800	0.100	0.300	0.155	8.30	0.379
461	372	1.61677e-04	16.6	0.859	0.0485	0.0817	0.100	0.326	0.100	0.100	0.831	0.100	0.100	0.0800	0.100	0.300	0.155	8.19	0.361
462	372.5	1.61962e-04	16.5	0.859	0.0485	0.0816	0.100	0.326	0.100	0.100	0.828	0.100	0.100	0.0800	0.100	0.300	0.155	8.11	0.384
463	372.9	1.61467e-04	16.3	0.859	0.0485	0.0815	0.100	0.326	0.100	0.100	0.825	0.100	0.100	0.0800	0.100	0.300	0.155	8.02	0.463
464	373.4	1.61866e-04	16.1	0.859	0.0485	0.0814	0.100	0.326	0.100	0.100	0.822	0.100	0.100	0.0800	0.100	0.300	0.155	7.95	0.350
465	373.8	1.63202e-04	16.1	0.859	0.0485	0.0813	0.100	0.326	0.100	0.100	0.820	0.100	0.100	0.0800	0.100	0.300	0.155	7.95	0.361
466	374.3	1.62551e-04	15.9	0.859	0.0485	0.0812	0.100	0.326	0.100	0.100	0.817	0.100	0.100	0.0800	0.100	0.300	0.155	7.83	0.359
467	374.8	1.63474e-04	15.8	0.859	0.0485	0.0811	0.100	0.326	0.100	0.100	0.814	0.100	0.100	0.0800	0.100	0.300	0.155	7.79	0.347
468	375.2	1.62412e-04	15.6	0.859	0.0485	0.0810	0.100	0.326	0.100	0.100	0.812	0.100	0.100	0.0800	0.100	0.300	0.155	7.67	0.332
469	375.7	1.61373e-04	15.3	0.859	0.0485	0.0809	0.100	0.326	0.100	0.100	0.809	0.100	0.100	0.0800	0.100	0.300	0.155	7.54	0.350
470	376.2	1.59454e-04	15.0	0.859	0.0485	0.0808	0.100	0.326	0.100	0.100	0.806	0.100	0.100	0.0800	0.100	0.300	0.155	7.36	0.362
471	376.6	1.58811e-04	14.8	0.859	0.0485	0.0807	0.100	0.326	0.100	0.100	0.803	0.100	0.100	0.0800	0.100	0.300	0.155	7.27	0.339
472	377.1	1.55678e-04	14.4	0.859	0.0485	0.0806	0.100	0.326	0.100	0.100	0.800	0.100	0.100	0.0800	0.100	0.300	0.155	7.04	0.546
473	377.6	1.52984e-04	13.9	0.859	0.0485	0.0805	0.100	0.326	0.100	0.100	0.797	0.100	0.100	0.0800	0.100	0.300	0.155	6.84	0.303
474	378	1.50207e-04	13.6	0.859	0.0485	0.0804	0.100	0.326	0.100	0.100	0.795	0.100	0.100	0.0800	0.100	0.300	0.155	6.65	0.307
475	378.5	1.47924e-04	13.2	0.859	0.0485	0.0803	0.100	0.326	0.100	0.100	0.792	0.100	0.100	0.0800	0.100	0.300	0.155	6.47	0.303
476	379	1.4645e-04	12.9	0.859	0.0485	0.0802	0.100	0.326	0.100	0.100	0.789	0.100	0.100	0.0800	0.100	0.300	0.155	6.34	0.302
477	379.4	1.43129e-04	12.5	0.859	0.0485	0.0801	0.100	0.326	0.100	0.100	0.787	0.100	0.100	0.0800	0.100	0.300	0.155	6.13	0.325
478	379.9	1.40876e-04	12.2	0.859	0.0485	0.0800	0.100	0.326	0.100	0.100	0.784	0.100	0.100	0.0800	0.100	0.300	0.155	5.97	0.296
479	380.4	1.39744e-04	12.0	0.857	0.0485	0.0799	0.100	0.326	0.100	0.100	0.781	0.100	0.100	0.0800	0.100	0.300	0.155	5.86	0.275
480	380.8	1.37436e-04	11.7	0.856	0.0485	0.0798	0.100	0.326	0.100	0.100	0.779	0.100	0.100	0.0800	0.100	0.300	0.155	5.71	0.278
481	381.3	1.37562e-04	11.6	0.854	0.0485	0.0797	0.100	0.326	0.100	0.100	0.776	0.100	0.100	0.0800	0.100	0.300	0.155	5.66	0.271
482	381.8	1.36817e-04	11.4	0.852	0.0485	0.0796	0.100	0.326	0.100	0.100	0.773	0.100	0.100	0.0800	0.100	0.300	0.155	5.57	0.280
483	382.2	1.35488e-04	11.2	0.850	0.0485	0.0795	0.100	0.326	0.100	0.100	0.771	0.100	0.100	0.0800	0.100	0.300	0.155	5.47	0.263
484	382.7	1.33444e-04	11.0	0.848	0.0485	0.0794	0.100	0.326	0.100	0.100	0.768	0.100	0.100	0.0800	0.100	0.300	0.155	5.33	0.267
485	383.2	1.33937e-04	10.9	0.846	0.0485	0.0793	0.100	0.326	0.100	0.100	0.765	0.100	0.100	0.0800	0.100	0.300	0.155	5.29	0.265
486	383.6	1.32747e-04	10.7	0.844	0.0485	0.0792	0.100	0.326	0.100	0.100	0.763	0.100	0.100	0.0800	0.100	0.300	0.155	5.20	0.261
487	384.1	1.30776e-04	10.5	0.842	0.0485	0.0791	0.100	0.326	0.100	0.100	0.760	0.100	0.100	0.0800	0.100	0.300	0.155	5.07	0.254
488	384.6	1.30855e-04	10.4	0.840	0.0485	0.0790	0.100	0.326	0.100	0.100	0.757	0.100	0.100	0.0800	0.100	0.300	0.155	5.02	0.265
489	385	1.29722e-04	10.2	0.839	0.0485	0.0790	0.100	0.326	0.100	0.100	0.755	0.100	0.100	0.0800	0.100	0.300	0.155	4.94	0.255
490	385.5	1.29769e-04	10.1	0.836	0.0485	0.0789	0.100	0.326	0.100	0.100	0.752	0.100	0.100	0.0800	0.100	0.300	0.155	4.89	0.242
491	386	1.28231e-04	9.91	0.834	0.0485	0.0788	0.100	0.326	0.100	0.100	0.750	0.100	0.100	0.0800	0.100	0.300	0.155	4.79	0.273
492	386.4	1.28163e-04	9.82	0.833	0.0485	0.0787	0.100	0.326	0.100	0.100	0.747	0.100	0.100	0.0800	0.100	0.300	0.155	4.75	0.235
493	386.9	1.27827e-04	9.71	0.831	0.0485	0.0786	0.100	0.326	0.100	0.100	0.745	0.100	0.100	0.0800	0.100	0.300	0.155	4.69	0.240
494	387.4	1.25632e-04	9.47	0.829	0.0485	0.0785	0.100	0.326	0.100	0.100	0.742	0.100	0.100	0.0800	0.100	0.300	0.155	4.56	0.283
495	387.8	1.24262e-04	9.29	0.827	0.0485	0.0784	0.100	0.326	0.100	0.100	0.740	0.100	0.100	0.0800	0.100	0.300	0.155	4.47	0.251
496	388.3	1.24095e-04	9.20	0.825	0.0485	0.0783	0.100	0.326	0.100	0.100	0.737	0.100	0.100	0.0800	0.100	0.300	0.155	4.42	0.249
497	388.8	1.22671e-04	9.02	0.823	0.0485	0.0782	0.100	0.326	0.100	0.100	0.734	0.100	0.100	0.0800	0.100	0.300	0.155	4.33	0.249
498	389.2	1.2101e-04	8.83	0.821	0.0485	0.0781	0.100	0.326	0.100	0.100	0.732	0.100	0.100	0.0800	0.100	0.300	0.155	4.24	0.225
499	389.7	1.19454e-04	8.65	0.819	0.0485	0.0780	0.100	0.326	0.100	0.100	0.730	0.100	0.100	0.0800	0.100	0.300	0.155	4.14	0.234
500	390.2	1.19032e-04	8.54	0.817	0.0485	0.0779	0.100	0.326	0.100	0.100	0.727	0.100	0.100	0.0800	0.100	0.300	0.155	4.09	0.233
501	390.7	1.17271e-04	8.35	0.815	0.0485	0.0778	0.100	0.326	0.100	0.100	0.725	0.100	0.100	0.0800	0.100	0.300	0.155	3.99	0.227
502	391.1	1.15583e-04	8.18	0.813	0.0485	0.0777	0.100	0.326	0.100	0.100	0.722	0.100	0.100	0.0800	0.100	0.300	0.155	3.90	0.224
