# hypstar_220251_radcal_L_200903_swir.dat																			
# Calibrated by Joel Kuusk, Tartu Observatory, University of Tartu, 2020-09-03																			
#																			
# Applied corrections:																			
# nonlinearity	hypstar_220251_nonlin_corr_coefs_200903.dat																		
# wavelength	none																		
# thermal	none																		
# stray light	none																		
#																			
# L [mW m-2 nm-1 sr-1] = DN / inttime_ms * 1000 * cal_coef																			
#																			
# px	wl	cal_coef	u_cal_coef(k=2)	u_lamp(k=1)	u_aging(k=1)	u_power(k=1)	u_align_lamp(k=1)	u_panel(k=1)	u_interp_panel(k=1)	u_align_panel(k=1)	u_wl_source(k=1)	u_lab_stray(k=1)	u_panel_backrefl(k=1)	u_dist(k=1)	u_align(k=1)	u_temp(k=1)	u_lin(k=1)	u_stray(k=1)	u_typeA(k=1)
1	884.9	7.21401e-04	1.59	0.613	0.0485	0.0344	0.100	0.305	0.100	0.100	0.00835	0.100	0.100	0.0800	0.100	0.300	0.0750	0	0.00732
2	888.5	6.35915e-04	1.59	0.613	0.0485	0.0342	0.100	0.305	0.100	0.100	0.00106	0.100	0.100	0.0800	0.100	0.300	0.0750	0	0.00676
3	892.1	6.04141e-04	1.59	0.613	0.0485	0.0341	0.100	0.305	0.100	0.100	0.0107	0.100	0.100	0.0800	0.100	0.300	0.0750	0	0.00643
4	895.7	5.80578e-04	1.59	0.613	0.0485	0.0339	0.100	0.305	0.100	0.100	0.0205	0.100	0.100	0.0800	0.100	0.300	0.0750	0	0.00632
5	899.3	5.592e-04	1.62	0.613	0.0485	0.0338	0.100	0.305	0.100	0.100	0.148	0.100	0.100	0.0800	0.100	0.300	0.0750	0	0.00639
6	902.8	5.35387e-04	3.66	1.76	0.0485	0.0337	0.100	0.305	0.100	0.100	0.132	0.100	0.100	0.0800	0.100	0.300	0.0750	0	0.00659
7	906.4	5.13138e-04	3.65	1.76	0.0485	0.0335	0.100	0.305	0.100	0.100	0.00115	0.100	0.100	0.0800	0.100	0.300	0.0750	0	0.00616
8	910	4.87812e-04	3.65	1.76	0.0485	0.0334	0.100	0.305	0.100	0.100	0.00380	0.100	0.100	0.0800	0.100	0.300	0.0750	0	0.00567
9	913.6	4.55985e-04	3.65	1.76	0.0485	0.0333	0.100	0.305	0.100	0.100	0.00854	0.100	0.100	0.0800	0.100	0.300	0.0750	0	0.00554
10	917.1	4.17572e-04	3.65	1.76	0.0485	0.0331	0.100	0.305	0.100	0.100	0.0128	0.100	0.100	0.0800	0.100	0.300	0.0750	0	0.00544
11	920.7	3.76514e-04	3.65	1.76	0.0485	0.0330	0.100	0.305	0.100	0.100	0.0164	0.100	0.100	0.0800	0.100	0.300	0.0750	0	0.00505
12	924.3	3.44193e-04	3.65	1.76	0.0485	0.0329	0.100	0.305	0.100	0.100	0.0190	0.100	0.100	0.0800	0.100	0.300	0.0750	0	0.00430
13	927.8	3.2294e-04	3.65	1.76	0.0485	0.0328	0.100	0.305	0.100	0.100	0.0204	0.100	0.100	0.0800	0.100	0.300	0.0750	0	0.00388
14	931.4	3.10345e-04	3.65	1.76	0.0485	0.0326	0.100	0.305	0.100	0.100	0.0208	0.100	0.100	0.0800	0.100	0.300	0.0750	0	0.00392
15	934.9	3.00586e-04	3.65	1.76	0.0485	0.0325	0.100	0.305	0.100	0.100	0.0202	0.100	0.100	0.0800	0.100	0.300	0.0750	0	0.00384
16	938.5	2.93856e-04	3.65	1.76	0.0485	0.0324	0.100	0.305	0.100	0.100	0.0188	0.100	0.100	0.0800	0.100	0.300	0.0750	0	0.00373
17	942	2.88442e-04	3.65	1.76	0.0485	0.0323	0.100	0.305	0.100	0.100	0.0179	0.100	0.100	0.0800	0.100	0.300	0.0750	0	0.00396
18	945.6	2.84052e-04	3.65	1.76	0.0485	0.0321	0.100	0.305	0.100	0.100	0.0186	0.100	0.100	0.0800	0.100	0.300	0.0750	0	0.00384
19	949.1	2.7857e-04	3.65	1.76	0.0485	0.0320	0.100	0.305	0.100	0.100	0.0208	0.100	0.100	0.0800	0.100	0.300	0.0750	0	0.00359
20	952.7	2.73642e-04	3.65	1.76	0.0485	0.0319	0.100	0.305	0.100	0.100	0.0249	0.100	0.100	0.0800	0.100	0.300	0.0750	0	0.00384
21	956.2	2.69141e-04	3.65	1.76	0.0485	0.0318	0.100	0.305	0.100	0.100	0.0304	0.100	0.100	0.0800	0.100	0.300	0.0750	0	0.00408
22	959.8	2.64226e-04	3.66	1.76	0.0485	0.0317	0.100	0.305	0.100	0.100	0.0378	0.100	0.100	0.0800	0.100	0.300	0.0750	0	0.00369
23	963.3	2.58633e-04	3.66	1.76	0.0485	0.0316	0.100	0.305	0.100	0.100	0.0457	0.100	0.100	0.0800	0.100	0.300	0.0750	0	0.00395
24	966.9	2.5284e-04	3.66	1.76	0.0485	0.0314	0.100	0.305	0.100	0.100	0.0534	0.100	0.100	0.0800	0.100	0.300	0.0750	0	0.00360
25	970.4	2.47259e-04	3.66	1.76	0.0485	0.0313	0.100	0.305	0.100	0.100	0.0599	0.100	0.100	0.0800	0.100	0.300	0.0750	0	0.00351
26	973.9	2.42352e-04	3.66	1.76	0.0485	0.0312	0.100	0.305	0.100	0.100	0.0655	0.100	0.100	0.0800	0.100	0.300	0.0750	0	0.00349
27	977.5	2.36935e-04	3.66	1.76	0.0485	0.0311	0.100	0.305	0.100	0.100	0.0703	0.100	0.100	0.0800	0.100	0.300	0.0750	0	0.00346
28	981	2.31622e-04	3.66	1.76	0.0485	0.0310	0.100	0.305	0.100	0.100	0.0740	0.100	0.100	0.0800	0.100	0.300	0.0750	0	0.00370
29	984.5	2.26471e-04	3.66	1.76	0.0485	0.0309	0.100	0.305	0.100	0.100	0.0770	0.100	0.100	0.0800	0.100	0.300	0.0750	0	0.00334
30	988	2.2192e-04	3.66	1.76	0.0485	0.0308	0.100	0.305	0.100	0.100	0.0797	0.100	0.100	0.0800	0.100	0.300	0.0750	0	0.00347
31	991.5	2.18219e-04	3.66	1.76	0.0485	0.0307	0.100	0.305	0.100	0.100	0.0824	0.100	0.100	0.0800	0.100	0.300	0.0750	0	0.00337
32	995.1	2.14391e-04	3.66	1.76	0.0485	0.0305	0.100	0.305	0.100	0.100	0.0852	0.100	0.100	0.0800	0.100	0.300	0.0750	0	0.00346
33	998.6	2.10755e-04	3.66	1.76	0.0485	0.0304	0.100	0.305	0.100	0.100	0.0879	0.100	0.100	0.0800	0.100	0.300	0.0750	0	0.00360
34	1002.1	2.07205e-04	3.57	1.71	0.0485	0.0303	0.100	0.305	0.100	0.100	0.0906	0.100	0.100	0.0800	0.100	0.300	0.0750	0	0.00307
35	1005.6	2.04346e-04	3.43	1.64	0.0485	0.0302	0.100	0.305	0.100	0.100	0.0932	0.100	0.100	0.0800	0.100	0.300	0.0750	0	0.00341
36	1009.1	2.02334e-04	3.29	1.56	0.0485	0.0301	0.100	0.305	0.100	0.100	0.0957	0.100	0.100	0.0800	0.100	0.300	0.0750	0	0.00286
37	1012.6	2.00442e-04	3.26	1.54	0.0485	0.0300	0.100	0.305	0.100	0.100	0.0980	0.100	0.100	0.0800	0.100	0.300	0.0750	0	0.00341
38	1016.1	1.97991e-04	3.26	1.54	0.0485	0.0299	0.100	0.305	0.100	0.100	0.100	0.100	0.100	0.0800	0.100	0.300	0.0750	0	0.00309
39	1019.6	1.95704e-04	3.26	1.54	0.0485	0.0298	0.100	0.305	0.100	0.100	0.102	0.100	0.100	0.0800	0.100	0.300	0.0750	0	0.00328
40	1023.1	1.93745e-04	3.26	1.54	0.0485	0.0297	0.100	0.305	0.100	0.100	0.103	0.100	0.100	0.0800	0.100	0.300	0.0750	0	0.00314
41	1026.6	1.92444e-04	3.26	1.54	0.0485	0.0296	0.100	0.305	0.100	0.100	0.104	0.100	0.100	0.0800	0.100	0.300	0.0750	0	0.00319
42	1030.1	1.91425e-04	3.26	1.54	0.0485	0.0295	0.100	0.305	0.100	0.100	0.106	0.100	0.100	0.0800	0.100	0.300	0.0750	0	0.00321
43	1033.6	1.90352e-04	3.26	1.54	0.0485	0.0294	0.100	0.305	0.100	0.100	0.107	0.100	0.100	0.0800	0.100	0.300	0.0750	0	0.00315
44	1037	1.88912e-04	3.26	1.54	0.0485	0.0293	0.100	0.305	0.100	0.100	0.109	0.100	0.100	0.0800	0.100	0.300	0.0750	0	0.00298
45	1040.5	1.87657e-04	3.26	1.54	0.0485	0.0292	0.100	0.305	0.100	0.100	0.112	0.100	0.100	0.0800	0.100	0.300	0.0750	0	0.00327
46	1044	1.86707e-04	3.26	1.54	0.0485	0.0291	0.100	0.305	0.100	0.100	0.115	0.100	0.100	0.0800	0.100	0.300	0.0750	0	0.00330
47	1047.5	1.86199e-04	3.26	1.54	0.0485	0.0290	0.100	0.305	0.100	0.100	0.119	0.100	0.100	0.0800	0.100	0.300	0.0750	0	0.00351
48	1050.9	1.85839e-04	3.26	1.54	0.0485	0.0289	0.100	0.305	0.100	0.100	0.122	0.100	0.100	0.0800	0.100	0.300	0.0750	0	0.00307
49	1054.4	1.85112e-04	3.26	1.54	0.0485	0.0288	0.100	0.305	0.100	0.100	0.126	0.100	0.100	0.0800	0.100	0.300	0.0750	0	0.00303
50	1057.9	1.84063e-04	3.26	1.54	0.0485	0.0287	0.100	0.305	0.100	0.100	0.129	0.100	0.100	0.0800	0.100	0.300	0.0750	0	0.00313
51	1061.3	1.82798e-04	3.26	1.54	0.0485	0.0286	0.100	0.305	0.100	0.100	0.132	0.100	0.100	0.0800	0.100	0.300	0.0750	0	0.00264
52	1064.8	1.81609e-04	3.26	1.54	0.0485	0.0285	0.100	0.305	0.100	0.100	0.134	0.100	0.100	0.0800	0.100	0.300	0.0750	0	0.00310
53	1068.3	1.80565e-04	3.26	1.54	0.0485	0.0285	0.100	0.305	0.100	0.100	0.136	0.100	0.100	0.0800	0.100	0.300	0.0750	0	0.00303
54	1071.7	1.79177e-04	3.26	1.54	0.0485	0.0284	0.100	0.305	0.100	0.100	0.137	0.100	0.100	0.0800	0.100	0.300	0.0750	0	0.00299
55	1075.2	1.77467e-04	3.26	1.54	0.0485	0.0283	0.100	0.305	0.100	0.100	0.138	0.100	0.100	0.0800	0.100	0.300	0.0750	0	0.00286
56	1078.6	1.75511e-04	3.26	1.54	0.0485	0.0282	0.100	0.305	0.100	0.100	0.139	0.100	0.100	0.0800	0.100	0.300	0.0750	0	0.00305
57	1082.1	1.73208e-04	3.26	1.54	0.0485	0.0281	0.100	0.305	0.100	0.100	0.140	0.100	0.100	0.0800	0.100	0.300	0.0750	0	0.00284
58	1085.5	1.7084e-04	3.27	1.54	0.0485	0.0280	0.100	0.305	0.100	0.100	0.141	0.100	0.100	0.0800	0.100	0.300	0.0750	0	0.00317
59	1088.9	1.68199e-04	3.27	1.54	0.0485	0.0279	0.100	0.305	0.100	0.100	0.142	0.100	0.100	0.0800	0.100	0.300	0.0750	0	0.00319
60	1092.4	1.65378e-04	3.22	1.52	0.0485	0.0278	0.100	0.305	0.100	0.100	0.143	0.100	0.100	0.0800	0.100	0.300	0.0750	0	0.00285
61	1095.8	1.63079e-04	3.17	1.49	0.0485	0.0277	0.100	0.305	0.100	0.100	0.144	0.100	0.100	0.0800	0.100	0.300	0.0750	0	0.00298
62	1099.2	1.60631e-04	3.11	1.46	0.0485	0.0277	0.100	0.305	0.100	0.100	0.145	0.100	0.100	0.0800	0.100	0.300	0.0750	0	0.00314
63	1102.7	1.58127e-04	3.10	1.46	0.0485	0.0276	0.100	0.305	0.100	0.100	0.147	0.100	0.100	0.0800	0.100	0.300	0.0750	0	0.00292
64	1106.1	1.55456e-04	3.10	1.46	0.0485	0.0275	0.100	0.305	0.100	0.100	0.150	0.100	0.100	0.0800	0.100	0.300	0.0750	0	0.00284
65	1109.5	1.53094e-04	3.10	1.46	0.0485	0.0274	0.100	0.305	0.100	0.100	0.153	0.100	0.100	0.0800	0.100	0.300	0.0750	0	0.00290
66	1112.9	1.51208e-04	3.10	1.46	0.0485	0.0273	0.100	0.305	0.100	0.100	0.156	0.100	0.100	0.0800	0.100	0.300	0.0750	0	0.00292
67	1116.3	1.49535e-04	3.10	1.46	0.0485	0.0272	0.100	0.305	0.100	0.100	0.160	0.100	0.100	0.0800	0.100	0.300	0.0750	0	0.00299
68	1119.7	1.48059e-04	3.10	1.46	0.0485	0.0272	0.100	0.305	0.100	0.100	0.164	0.100	0.100	0.0800	0.100	0.300	0.0750	0	0.00272
69	1123.1	1.46784e-04	3.10	1.46	0.0485	0.0271	0.100	0.305	0.100	0.100	0.168	0.100	0.100	0.0800	0.100	0.300	0.0750	0	0.00287
70	1126.5	1.45194e-04	3.10	1.46	0.0485	0.0270	0.100	0.305	0.100	0.100	0.171	0.100	0.100	0.0800	0.100	0.300	0.0750	0	0.00282
71	1129.9	1.44099e-04	3.10	1.46	0.0485	0.0269	0.100	0.305	0.100	0.100	0.173	0.100	0.100	0.0800	0.100	0.300	0.0750	0	0.00273
72	1133.3	1.43364e-04	3.10	1.46	0.0485	0.0268	0.100	0.305	0.100	0.100	0.175	0.100	0.100	0.0800	0.100	0.300	0.0750	0	0.00284
73	1136.7	1.43054e-04	3.10	1.46	0.0485	0.0267	0.100	0.305	0.100	0.100	0.176	0.100	0.100	0.0800	0.100	0.300	0.0750	0	0.00276
74	1140.1	1.43246e-04	3.10	1.45	0.0485	0.0267	0.100	0.305	0.100	0.100	0.177	0.100	0.100	0.0800	0.100	0.300	0.0750	0	0.00262
75	1143.5	1.43607e-04	3.10	1.45	0.0485	0.0266	0.100	0.305	0.100	0.100	0.179	0.100	0.100	0.0800	0.100	0.300	0.0750	0	0.00259
76	1146.9	1.44191e-04	3.09	1.45	0.0485	0.0265	0.100	0.305	0.100	0.100	0.180	0.100	0.100	0.0800	0.100	0.300	0.0750	0	0.00304
77	1150.3	1.4436e-04	3.08	1.44	0.0485	0.0264	0.100	0.305	0.100	0.100	0.181	0.100	0.100	0.0800	0.100	0.300	0.0750	0	0.00276
78	1153.6	1.44712e-04	3.09	1.44	0.0485	0.0264	0.100	0.305	0.100	0.100	0.183	0.100	0.100	0.0800	0.100	0.300	0.0750	0	0.00288
79	1157	1.44919e-04	3.09	1.44	0.0485	0.0263	0.100	0.305	0.100	0.100	0.185	0.100	0.100	0.0800	0.100	0.300	0.0750	0	0.00295
80	1160.4	1.45093e-04	3.09	1.44	0.0485	0.0262	0.100	0.305	0.100	0.100	0.187	0.100	0.100	0.0800	0.100	0.300	0.0750	0	0.00295
81	1163.8	1.45275e-04	3.09	1.44	0.0485	0.0261	0.100	0.305	0.100	0.100	0.189	0.100	0.100	0.0800	0.100	0.300	0.0750	0	0.00263
82	1167.1	1.45349e-04	3.09	1.44	0.0485	0.0260	0.100	0.305	0.100	0.100	0.191	0.100	0.100	0.0800	0.100	0.300	0.0750	0	0.00280
83	1170.5	1.4487e-04	3.09	1.44	0.0485	0.0260	0.100	0.305	0.100	0.100	0.193	0.100	0.100	0.0800	0.100	0.300	0.0750	0	0.00306
84	1173.8	1.44046e-04	3.09	1.44	0.0485	0.0259	0.100	0.305	0.100	0.100	0.193	0.100	0.100	0.0800	0.100	0.300	0.0750	0	0.00273
85	1177.2	1.42622e-04	3.09	1.44	0.0485	0.0258	0.100	0.305	0.100	0.100	0.194	0.100	0.100	0.0800	0.100	0.300	0.0750	0	0.00284
86	1180.5	1.40646e-04	3.09	1.44	0.0485	0.0258	0.100	0.305	0.100	0.100	0.194	0.100	0.100	0.0800	0.100	0.300	0.0750	0	0.00280
87	1183.9	1.38504e-04	3.09	1.44	0.0485	0.0257	0.100	0.305	0.100	0.100	0.193	0.100	0.100	0.0800	0.100	0.300	0.0750	0	0.00274
88	1187.2	1.36531e-04	3.09	1.44	0.0485	0.0256	0.100	0.305	0.100	0.100	0.193	0.100	0.100	0.0800	0.100	0.300	0.0750	0	0.00294
89	1190.5	1.34662e-04	3.09	1.44	0.0485	0.0255	0.100	0.305	0.100	0.100	0.192	0.100	0.100	0.0800	0.100	0.300	0.0750	0	0.00269
90	1193.9	1.33118e-04	3.09	1.44	0.0485	0.0255	0.100	0.305	0.100	0.100	0.191	0.100	0.100	0.0800	0.100	0.300	0.0750	0	0.00287
91	1197.2	1.31885e-04	3.09	1.44	0.0485	0.0254	0.100	0.305	0.100	0.100	0.190	0.100	0.100	0.0800	0.100	0.300	0.0750	0	0.00282
92	1200.5	1.3093e-04	3.09	1.44	0.0485	0.0253	0.100	0.305	0.100	0.100	0.189	0.100	0.100	0.0800	0.100	0.300	0.0750	0	0.00266
93	1203.9	1.302e-04	3.09	1.44	0.0485	0.0253	0.100	0.305	0.100	0.100	0.187	0.100	0.100	0.0800	0.100	0.300	0.0750	0	0.00298
94	1207.2	1.29677e-04	3.09	1.44	0.0485	0.0252	0.100	0.305	0.100	0.100	0.186	0.100	0.100	0.0800	0.100	0.300	0.0750	0	0.00270
95	1210.5	1.29446e-04	3.09	1.44	0.0485	0.0251	0.100	0.305	0.100	0.100	0.185	0.100	0.100	0.0800	0.100	0.300	0.0750	0	0.00281
96	1213.8	1.28897e-04	3.09	1.44	0.0485	0.0250	0.100	0.305	0.100	0.100	0.185	0.100	0.100	0.0800	0.100	0.300	0.0750	0	0.00281
97	1217.1	1.28372e-04	3.09	1.44	0.0485	0.0250	0.100	0.305	0.100	0.100	0.185	0.100	0.100	0.0800	0.100	0.300	0.0750	0	0.00289
98	1220.4	1.27582e-04	3.09	1.44	0.0485	0.0249	0.100	0.305	0.100	0.100	0.187	0.100	0.100	0.0800	0.100	0.300	0.0750	0	0.00298
99	1223.7	1.26616e-04	3.09	1.44	0.0485	0.0248	0.100	0.305	0.100	0.100	0.189	0.100	0.100	0.0800	0.100	0.300	0.0750	0	0.00300
100	1227	1.25942e-04	3.09	1.44	0.0485	0.0248	0.100	0.305	0.100	0.100	0.191	0.100	0.100	0.0800	0.100	0.300	0.0750	0	0.00282
101	1230.3	1.25166e-04	3.09	1.44	0.0485	0.0247	0.100	0.305	0.100	0.100	0.194	0.100	0.100	0.0800	0.100	0.300	0.0750	0	0.00300
102	1233.6	1.24443e-04	3.09	1.44	0.0485	0.0246	0.100	0.305	0.100	0.100	0.196	0.100	0.100	0.0800	0.100	0.300	0.0750	0	0.00298
103	1236.9	1.24006e-04	3.09	1.44	0.0485	0.0246	0.100	0.305	0.100	0.100	0.198	0.100	0.100	0.0800	0.100	0.300	0.0750	0	0.00278
104	1240.1	1.23673e-04	3.09	1.44	0.0485	0.0245	0.100	0.305	0.100	0.100	0.200	0.100	0.100	0.0800	0.100	0.300	0.0750	0	0.00274
105	1243.4	1.23538e-04	3.09	1.44	0.0485	0.0244	0.100	0.305	0.100	0.100	0.201	0.100	0.100	0.0800	0.100	0.300	0.0750	0	0.00285
106	1246.7	1.23629e-04	3.09	1.44	0.0485	0.0244	0.100	0.305	0.100	0.100	0.202	0.100	0.100	0.0800	0.100	0.300	0.0750	0	0.00263
107	1250	1.23793e-04	3.09	1.44	0.0485	0.0243	0.100	0.305	0.100	0.100	0.202	0.100	0.100	0.0800	0.100	0.300	0.0750	0	0.00303
108	1253.2	1.23802e-04	3.09	1.44	0.0485	0.0243	0.100	0.305	0.100	0.100	0.203	0.100	0.100	0.0800	0.100	0.300	0.0750	0	0.00243
109	1256.5	1.23799e-04	3.09	1.44	0.0485	0.0242	0.100	0.305	0.100	0.100	0.203	0.100	0.100	0.0800	0.100	0.300	0.0750	0	0.00283
110	1259.7	1.23505e-04	3.09	1.44	0.0485	0.0241	0.100	0.305	0.100	0.100	0.204	0.100	0.100	0.0800	0.100	0.300	0.0750	0	0.00268
111	1263	1.22895e-04	3.09	1.44	0.0485	0.0241	0.100	0.305	0.100	0.100	0.205	0.100	0.100	0.0800	0.100	0.300	0.0750	0	0.00260
112	1266.2	1.22134e-04	3.09	1.44	0.0485	0.0240	0.100	0.305	0.100	0.100	0.207	0.100	0.100	0.0800	0.100	0.300	0.0750	0	0.00260
113	1269.5	1.21122e-04	3.09	1.44	0.0485	0.0239	0.100	0.305	0.100	0.100	0.209	0.100	0.100	0.0800	0.100	0.300	0.0750	0	0.00268
114	1272.7	1.20127e-04	3.09	1.44	0.0485	0.0239	0.100	0.305	0.100	0.100	0.211	0.100	0.100	0.0800	0.100	0.300	0.0750	0	0.00295
115	1276	1.19103e-04	3.09	1.44	0.0485	0.0238	0.100	0.305	0.100	0.100	0.213	0.100	0.100	0.0800	0.100	0.300	0.0750	0	0.00263
116	1279.2	1.18215e-04	3.09	1.44	0.0485	0.0238	0.100	0.305	0.100	0.100	0.214	0.100	0.100	0.0800	0.100	0.300	0.0750	0	0.00283
117	1282.4	1.17435e-04	3.09	1.44	0.0485	0.0237	0.100	0.305	0.100	0.100	0.216	0.100	0.100	0.0800	0.100	0.300	0.0750	0	0.00286
118	1285.7	1.16623e-04	3.09	1.44	0.0485	0.0236	0.100	0.305	0.100	0.100	0.218	0.100	0.100	0.0800	0.100	0.300	0.0750	0	0.00260
119	1288.9	1.15835e-04	3.09	1.44	0.0485	0.0236	0.100	0.305	0.100	0.100	0.219	0.100	0.100	0.0800	0.100	0.300	0.0750	0	0.00290
120	1292.1	1.15097e-04	3.09	1.44	0.0485	0.0235	0.100	0.305	0.100	0.100	0.220	0.100	0.100	0.0800	0.100	0.300	0.0750	0	0.00306
121	1295.3	1.14308e-04	3.10	1.44	0.0485	0.0235	0.100	0.305	0.100	0.100	0.221	0.100	0.100	0.0800	0.100	0.300	0.0750	0	0.00295
122	1298.5	1.1354e-04	3.10	1.44	0.0485	0.0234	0.100	0.305	0.100	0.100	0.222	0.100	0.100	0.0800	0.100	0.300	0.0750	0	0.00283
123	1301.7	1.12762e-04	3.10	1.44	0.0485	0.0234	0.100	0.305	0.100	0.100	0.222	0.100	0.100	0.0800	0.100	0.300	0.0750	0	0.00280
124	1304.9	1.12148e-04	3.10	1.44	0.0485	0.0233	0.100	0.305	0.100	0.100	0.223	0.100	0.100	0.0800	0.100	0.300	0.0750	0	0.00277
125	1308.1	1.11706e-04	3.10	1.44	0.0485	0.0232	0.100	0.305	0.100	0.100	0.223	0.100	0.100	0.0800	0.100	0.300	0.0750	0	0.00275
126	1311.3	1.1121e-04	3.10	1.44	0.0485	0.0232	0.100	0.305	0.100	0.100	0.223	0.100	0.100	0.0800	0.100	0.300	0.0750	0	0.00275
127	1314.5	1.10863e-04	3.10	1.44	0.0485	0.0231	0.100	0.305	0.100	0.100	0.222	0.100	0.100	0.0800	0.100	0.300	0.0750	0	0.00280
128	1317.7	1.10495e-04	3.10	1.44	0.0485	0.0231	0.100	0.305	0.100	0.100	0.222	0.100	0.100	0.0800	0.100	0.300	0.0750	0	0.00260
129	1320.9	1.10006e-04	3.10	1.44	0.0485	0.0230	0.100	0.305	0.100	0.100	0.223	0.100	0.100	0.0800	0.100	0.300	0.0750	0	0.00262
130	1324	1.09433e-04	3.10	1.44	0.0485	0.0230	0.100	0.305	0.100	0.100	0.225	0.100	0.100	0.0800	0.100	0.300	0.0750	0	0.00272
131	1327.2	1.08859e-04	3.10	1.44	0.0485	0.0229	0.100	0.305	0.100	0.100	0.228	0.100	0.100	0.0800	0.100	0.300	0.0750	0	0.00276
132	1330.4	1.08095e-04	3.10	1.44	0.0485	0.0229	0.100	0.305	0.100	0.100	0.233	0.100	0.100	0.0800	0.100	0.300	0.0750	0	0.00282
133	1333.5	1.07296e-04	3.10	1.44	0.0485	0.0228	0.100	0.305	0.100	0.100	0.238	0.100	0.100	0.0800	0.100	0.300	0.0750	0	0.00245
134	1336.7	1.06804e-04	3.10	1.44	0.0485	0.0227	0.100	0.305	0.100	0.100	0.244	0.100	0.100	0.0800	0.100	0.300	0.0750	0	0.00299
135	1339.8	1.06524e-04	3.10	1.44	0.0485	0.0227	0.100	0.305	0.100	0.100	0.251	0.100	0.100	0.0800	0.100	0.300	0.0750	0	0.00277
136	1343	1.06638e-04	3.11	1.44	0.0485	0.0226	0.100	0.305	0.100	0.100	0.257	0.100	0.100	0.0800	0.100	0.300	0.0750	0	0.00285
137	1346.1	1.07149e-04	3.11	1.44	0.0485	0.0226	0.100	0.305	0.100	0.100	0.262	0.100	0.100	0.0800	0.100	0.300	0.0750	0	0.00306
138	1349.3	1.08277e-04	3.11	1.44	0.0485	0.0225	0.100	0.305	0.100	0.100	0.266	0.100	0.100	0.0800	0.100	0.300	0.0750	0	0.00290
139	1352.4	1.09737e-04	3.11	1.44	0.0485	0.0225	0.100	0.305	0.100	0.100	0.268	0.100	0.100	0.0800	0.100	0.300	0.0750	0	0.00260
140	1355.5	1.11289e-04	3.11	1.44	0.0485	0.0224	0.100	0.305	0.100	0.100	0.268	0.100	0.100	0.0800	0.100	0.300	0.0750	0	0.00292
141	1358.7	1.12849e-04	3.11	1.44	0.0485	0.0224	0.100	0.305	0.100	0.100	0.268	0.100	0.100	0.0800	0.100	0.300	0.0750	0	0.00274
142	1361.8	1.13617e-04	3.11	1.44	0.0485	0.0223	0.100	0.305	0.100	0.100	0.266	0.100	0.100	0.0800	0.100	0.300	0.0750	0	0.00266
143	1364.9	1.13652e-04	3.11	1.44	0.0485	0.0223	0.100	0.305	0.100	0.100	0.264	0.100	0.100	0.0800	0.100	0.300	0.0750	0	0.00261
144	1368	1.12951e-04	3.11	1.44	0.0485	0.0222	0.100	0.305	0.100	0.100	0.261	0.100	0.100	0.0800	0.100	0.300	0.0750	0	0.00280
145	1371.1	1.12405e-04	3.11	1.44	0.0485	0.0222	0.100	0.305	0.100	0.100	0.259	0.100	0.100	0.0800	0.100	0.300	0.0750	0	0.00274
146	1374.2	1.12786e-04	3.11	1.44	0.0485	0.0221	0.100	0.305	0.100	0.100	0.256	0.100	0.100	0.0800	0.100	0.300	0.0750	0	0.00264
147	1377.3	1.14535e-04	3.11	1.44	0.0485	0.0221	0.100	0.305	0.100	0.100	0.254	0.100	0.100	0.0800	0.100	0.300	0.0750	0	0.00256
148	1380.4	1.16765e-04	3.10	1.44	0.0485	0.0220	0.100	0.305	0.100	0.100	0.252	0.100	0.100	0.0800	0.100	0.300	0.0750	0	0.00273
149	1383.5	1.17879e-04	3.10	1.44	0.0485	0.0220	0.100	0.305	0.100	0.100	0.249	0.100	0.100	0.0800	0.100	0.300	0.0750	0	0.00267
150	1386.6	1.17588e-04	3.10	1.44	0.0485	0.0219	0.100	0.305	0.100	0.100	0.247	0.100	0.100	0.0800	0.100	0.300	0.0750	0	0.00273
151	1389.7	1.17555e-04	3.10	1.44	0.0485	0.0219	0.100	0.305	0.100	0.100	0.245	0.100	0.100	0.0800	0.100	0.300	0.0750	0	0.00293
152	1392.8	1.18347e-04	3.12	1.45	0.0485	0.0218	0.100	0.305	0.100	0.100	0.243	0.100	0.100	0.0800	0.100	0.300	0.0750	0	0.00293
153	1395.8	1.19156e-04	3.13	1.46	0.0485	0.0218	0.100	0.305	0.100	0.100	0.242	0.100	0.100	0.0800	0.100	0.300	0.0750	0	0.00272
154	1398.9	1.19454e-04	3.15	1.47	0.0485	0.0217	0.100	0.305	0.100	0.100	0.241	0.100	0.100	0.0800	0.100	0.300	0.0750	0	0.00338
